# gas phase mass metallicity relation data  
# col1 = stellar mass (in solar masses) 
# col2 = avg metallicity of *all gas* in the subhalo (unitless) 
# col3 = avg metallicity of *star forming gas* in the subhalo (unitless)  

1.28093e+08    1.72963e-03    1.86238e-03
2.10173e+08    2.27288e-03    2.46549e-03
3.44849e+08    2.91787e-03    3.23458e-03
5.65823e+08    3.83324e-03    4.32577e-03
9.28393e+08    5.06222e-03    5.82630e-03
1.52329e+09    6.83157e-03    8.06704e-03
2.49939e+09    9.13836e-03    1.08723e-02
4.10097e+09    1.15981e-02    1.40367e-02
6.72880e+09    1.42969e-02    1.72712e-02
1.10405e+10    1.77292e-02    2.16983e-02
1.81151e+10    2.12110e-02    2.61224e-02
2.97230e+10    2.60797e-02    3.15833e-02
4.87690e+10    3.24641e-02    3.83729e-02
8.00194e+10    3.70366e-02    4.31945e-02
1.31295e+11    3.83260e-02    4.56450e-02
2.15426e+11    3.86138e-02    4.67608e-02
3.53468e+11    2.92558e-02    3.22797e-02
5.79964e+11    2.08959e-02    2.32816e-02
9.51596e+11    1.61697e-02    1.53445e-02
1.56136e+12    1.11604e-02    9.07252e-03
