# gas phase mass metallicity relation data  
# col1 = stellar mass (in solar masses) 
# col2 = avg metallicity of *all gas* in the subhalo (unitless) 
# col3 = avg metallicity of *star forming gas* in the subhalo (unitless)  

1.28093e+08    1.48555e-03    1.70670e-03
2.10173e+08    1.85302e-03    2.14358e-03
3.44849e+08    2.34345e-03    2.69237e-03
5.65823e+08    2.91851e-03    3.30617e-03
9.28393e+08    3.73007e-03    4.12321e-03
1.52329e+09    4.62491e-03    5.01785e-03
2.49939e+09    5.97406e-03    6.10115e-03
4.10097e+09    7.45584e-03    7.35803e-03
6.72880e+09    9.31682e-03    8.93291e-03
1.10405e+10    1.14549e-02    1.01977e-02
1.81151e+10    1.39200e-02    1.19497e-02
2.97230e+10    1.66109e-02    1.33446e-02
4.87690e+10    1.96876e-02    1.52632e-02
8.00194e+10    2.28282e-02    1.73217e-02
1.31295e+11    2.53290e-02    1.65461e-02
2.15426e+11    2.72301e-02    1.79070e-02
3.53468e+11    2.52106e-02    1.64171e-02
5.79964e+11    2.52822e-02    1.61029e-02
1.56136e+12    3.12714e-02    8.95093e-03
