# stellar mass function data  
# col1 = stellar mass (in solar masses) 
# col2 = number density (in #/Mpc^3/dex)

1.28093e+08    5.12843e-02
2.10173e+08    4.34734e-02
3.44849e+08    3.83085e-02
5.65823e+08    3.23512e-02
9.28393e+08    2.81977e-02
1.52329e+09    2.50980e-02
2.49939e+09    2.08445e-02
4.10097e+09    1.54065e-02
6.72880e+09    1.17375e-02
1.10405e+10    9.11850e-03
1.81151e+10    6.69562e-03
2.97230e+10    4.75731e-03
4.87690e+10    3.51126e-03
8.00194e+10    2.45749e-03
1.31295e+11    1.49603e-03
2.15426e+11    8.19165e-04
3.53468e+11    4.88422e-04
5.79964e+11    2.26905e-04
9.51596e+11    1.11529e-04
1.56136e+12    2.69209e-05
