# stellar mass function data  
# col1 = stellar mass (in solar masses) 
# col2 = number density (in #/Mpc^3/dex)

1.28093e+08    6.23296e-02
2.10173e+08    5.06382e-02
3.44849e+08    4.16236e-02
5.65823e+08    3.32742e-02
9.28393e+08    2.73478e-02
1.52329e+09    2.23520e-02
2.49939e+09    1.64179e-02
4.10097e+09    1.16375e-02
6.72880e+09    8.73776e-03
1.10405e+10    5.82261e-03
1.81151e+10    4.10352e-03
2.97230e+10    2.79977e-03
4.87690e+10    1.94215e-03
8.00194e+10    1.58833e-03
1.31295e+11    1.07684e-03
2.15426e+11    6.53794e-04
3.53468e+11    2.65363e-04
5.79964e+11    1.11529e-04
9.51596e+11    3.46126e-05
1.56136e+12    1.15375e-05
